,,,,
,,,,
,,,,
,,,,
,,,,
﻿,,,,
Axis,Energy,Elements=,201,
,,,,
C:\2025XPSdata\2025-04-08\Experiment\2025-03434_X-Ray009 400um - FG  ON\1\1.DATA\F1s Scan.VGD,,,,
,,,,
,,,,
,,,,
,,,,
,,,,
Binding Energy (E),,,,Backgnd.
eV,,Counts / s,,Counts / s
698.08,,28442.2,,0
697.98,,28008.9,,0
697.88,,27860.2,,0
697.78,,28522.9,,0
697.68,,28368.2,,0
697.58,,27791.9,,0
697.48,,28606.4,,0
697.38,,28374.1,,0
697.28,,27592.4,,0
697.18,,28334.9,,0
697.08,,27982,,0
696.98,,26957.9,,0
696.88,,27501.4,,0
696.78,,27367.4,,0
696.68,,27556.7,,0
696.58,,27280.2,,0
696.48,,27209.6,,0
696.38,,26825.8,,0
696.28,,27441.4,,0
696.18,,26985,,0
696.08,,26988.1,,0
695.98,,26994.4,,0
695.88,,27115.7,,0
695.78,,26675.3,,0
695.68,,26330.6,,0
695.58,,26424.7,,0
695.48,,26962.9,,0
695.38,,26957.1,,0
695.28,,26446.6,,0
695.18,,26394.7,,0
695.08,,26259.6,,0
694.98,,26597.7,,0
694.88,,26310.9,,0
694.78,,26521.7,,0
694.68,,26591.4,,0
694.58,,26268.3,,0
694.48,,26194.5,,0
694.38,,25641.6,,0
694.28,,26356.4,,0
694.18,,26209.9,,0
694.08,,25954.6,,0
693.98,,26425.8,,0
693.88,,25525.1,,0
693.78,,25613.4,,0
693.68,,25938.4,,0
693.58,,26235.2,,0
693.48,,25590.9,,0
693.38,,26184.3,,0
693.28,,25803.7,,0
693.18,,25291.3,,0
693.08,,25441.1,,0
692.98,,25714.2,,0
692.88,,25487.6,,0
692.78,,26082.5,,0
692.68,,25847.5,,0
692.58,,25812.3,,0
692.48,,25452.3,,25637.9
692.38,,25015.1,,25636.6
692.28,,26062.5,,25634.9
692.18,,25705.2,,25633.3
692.08,,25478.1,,25631.7
691.98,,25485.2,,25596.9
691.88,,25655,,25594
691.78,,25370.3,,25574.2
691.68,,26046.8,,25523.9
691.58,,25622.2,,25459.9
691.48,,25366.4,,25415.7
691.38,,25195.7,,25352.9
691.28,,25344.6,,25351.8
691.18,,25245.3,,25351.7
691.08,,25606.8,,25351.6
690.98,,25427,,25351.5
690.88,,25609.5,,25351.4
690.78,,25607.7,,25351.2
690.68,,26035.3,,25350.9
690.58,,25740.1,,25350.6
690.48,,25855.8,,25350.2
690.38,,25780.7,,25349.9
690.28,,25652.7,,25349.6
690.18,,25798.5,,25349.1
690.08,,26644.9,,25348.5
689.98,,27039.4,,25347.7
689.88,,27469.2,,25346.7
689.78,,27016.8,,25345.5
689.68,,27739.7,,25344.1
689.58,,28078.1,,25342.5
689.48,,28101.1,,25340.7
689.38,,29110.3,,25338.6
689.28,,29793.4,,25336.1
689.18,,30755.1,,25333.1
689.08,,31424.4,,25329.5
688.98,,33008.6,,25325.3
688.88,,33323.9,,25320.5
688.78,,35025.8,,25315
688.68,,36008.6,,25308.7
688.58,,37158.5,,25301.7
688.48,,38411,,25294.1
688.38,,38769.8,,25285.7
688.28,,40142.8,,25276.7
688.18,,41023.6,,25267
688.08,,42198.2,,25256.8
687.98,,42682.1,,25246
687.88,,43423,,25234.6
687.78,,44205.1,,25222.9
687.68,,43870.1,,25210.8
687.58,,44640.2,,25198.4
687.48,,45647.2,,25185.6
687.38,,45888.8,,25172.3
687.28,,47710.4,,25158.4
687.18,,49100.1,,25143.7
687.08,,50555.5,,25128.1
686.98,,52369.5,,25111.3
686.88,,54785.5,,25093.4
686.78,,57078.1,,25073.8
686.68,,60774.3,,25052.5
686.58,,64953.2,,25029
686.48,,68043.1,,25003.3
686.38,,72363.5,,24975
686.28,,76694.5,,24944.3
686.18,,79701.3,,24911.2
686.08,,83115.9,,24875.7
685.98,,85889.1,,24838.2
685.88,,88090.5,,24799.1
685.78,,88152.1,,24759
685.68,,88415.1,,24718.1
685.58,,88143.6,,24677.1
685.48,,86550.9,,24636.5
685.38,,85064,,24597
685.28,,79931.9,,24558.9
685.18,,76275.4,,24523
685.08,,72443.3,,24489.5
684.98,,66637.9,,24459.1
684.88,,61333.3,,24431.7
684.78,,56865.4,,24407.4
684.68,,52660.4,,24386.2
684.58,,47660.2,,24367.9
684.48,,44590,,24352.2
684.38,,40988.1,,24338.9
684.28,,38252.5,,24327.9
684.18,,35049.5,,24318.8
684.08,,33424.9,,24311.2
683.98,,31840.7,,24305
683.88,,30975.5,,24300
683.78,,28947.8,,24295.9
683.68,,28077.6,,24292.6
683.58,,27099.8,,24289.9
683.48,,26700,,24287.9
683.38,,26408.6,,24286.2
683.28,,25994,,24284.8
683.18,,25937.3,,24283.7
683.08,,25300.7,,24282.6
682.98,,25815.5,,24281.7
682.88,,25216.1,,24281
682.78,,24994.5,,24280.4
682.68,,24814.2,,24279.8
682.58,,24546.9,,24279.5
682.48,,24603.4,,24279.1
682.38,,25083.9,,24278.8
682.28,,24889.6,,24278.5
682.18,,24768.5,,24278.1
682.08,,24978.3,,24277.7
681.98,,24473.2,,24277.5
681.88,,24200,,24277.3
681.78,,24253.1,,24277.2
681.68,,24690.1,,24277
681.58,,24774.8,,24276.9
681.48,,24174.6,,24276.9
681.38,,24051,,24276.7
681.28,,24890.2,,24276.5
681.18,,24864.5,,24276.4
681.08,,24447.6,,24276.2
680.98,,24935.4,,24275.9
680.88,,24448.6,,24275.6
680.78,,24550.9,,24275.5
680.68,,24206.2,,24275.4
680.58,,24133,,24275.3
680.48,,24325.6,,24275.3
680.38,,24335.9,,0
680.28,,24375.8,,0
680.18,,24546.4,,0
680.08,,24463.8,,0
679.98,,24012.2,,0
679.88,,23878.3,,0
679.78,,24198.4,,0
679.68,,24286.9,,0
679.58,,24159.6,,0
679.48,,24324.9,,0
679.38,,24184.6,,0
679.28,,24220.5,,0
679.18,,24571.2,,0
679.08,,24411.1,,0
678.98,,24350.5,,0
678.88,,24443.8,,0
678.78,,24472.6,,0
678.68,,24439.1,,0
678.58,,24369.8,,0
678.48,,24257.7,,0
678.38,,24345.4,,0
678.28,,24712.7,,0
678.18,,24518.5,,0
678.08,,24233.2,,0
