,,,,
,,,,
,,,,
,,,,
,,,,
﻿,,,,
Axis,Energy,Elements=,201,
,,,,
C:\2025XPSdata\2025-04-08\Experiment\2025-03434_X-Ray009 400um - FG  ON\3\3.DATA\F1s Scan.VGD,,,,
,,,,
,,,,
,,,,
,,,,
,,,,
Binding Energy (E),,,,Backgnd.
eV,,Counts / s,,Counts / s
698.08,,31492.1,,0
697.98,,31481.6,,0
697.88,,31939.3,,0
697.78,,31487,,0
697.68,,31256.3,,0
697.58,,31650.9,,0
697.48,,31607.4,,0
697.38,,31259.6,,0
697.28,,31805.1,,0
697.18,,32151.1,,0
697.08,,30833,,0
696.98,,30861.9,,0
696.88,,30884.3,,0
696.78,,30842.3,,0
696.68,,31280.3,,0
696.58,,30621.6,,0
696.48,,30613.7,,0
696.38,,30862.9,,0
696.28,,30455.6,,0
696.18,,30251.8,,0
696.08,,30224.3,,0
695.98,,30371.3,,0
695.88,,30491.1,,0
695.78,,30699.7,,0
695.68,,30133.3,,0
695.58,,30712.8,,0
695.48,,30709.1,,0
695.38,,30518.6,,0
695.28,,29900.1,,0
695.18,,30020.2,,0
695.08,,30544.8,,0
694.98,,30377.1,,0
694.88,,30087.3,,0
694.78,,30188.5,,0
694.68,,30321.1,,0
694.58,,30317.6,,0
694.48,,30139.8,,0
694.38,,30062.2,,0
694.28,,30295.4,,0
694.18,,29689.7,,0
694.08,,30065.9,,0
693.98,,30444,,0
693.88,,29331.3,,0
693.78,,29776.4,,0
693.68,,29423.3,,0
693.58,,29624.4,,0
693.48,,30193.1,,0
693.38,,30073.9,,0
693.28,,30128.4,,0
693.18,,29589.9,,0
693.08,,30044.4,,0
692.98,,29699.8,,0
692.88,,30004.9,,0
692.78,,29226.1,,0
692.68,,29763.5,,0
692.58,,29953.5,,0
692.48,,29880.8,,29816.3
692.38,,29665.3,,29705.2
692.28,,29818.3,,29683.5
692.18,,29451.4,,29683.3
692.08,,29601.7,,29676.4
691.98,,30161.3,,29665.3
691.88,,29801.8,,29655.9
691.78,,29700.5,,29655.9
691.68,,29014,,29655.8
691.58,,30153.9,,29655.8
691.48,,29736.9,,29655.8
691.38,,30114.6,,29655.8
691.28,,29751.1,,29655.8
691.18,,29923,,29655.8
691.08,,30360.4,,29655.7
690.98,,29898.5,,29655.7
690.88,,29568,,29655.7
690.78,,29942.9,,29655.6
690.68,,30290.7,,29655.6
690.58,,30127.9,,29655.6
690.48,,30403.7,,29655.5
690.38,,30013.6,,29655.5
690.28,,30079.4,,29655.4
690.18,,29933.6,,29655.4
690.08,,29919.2,,29655.4
689.98,,30379.1,,29655.3
689.88,,30221.3,,29655.3
689.78,,30522.8,,29655.2
689.68,,30557.9,,29655.1
689.58,,30732.6,,29655
689.48,,31381.1,,29654.9
689.38,,30480.6,,29654.8
689.28,,31683,,29654.7
689.18,,31644.3,,29654.5
689.08,,31944.4,,29654.3
688.98,,32396.5,,29654.1
688.88,,33490.1,,29653.8
688.78,,33972.4,,29653.4
688.68,,34366.5,,29653
688.58,,35639.3,,29652.6
688.48,,36188.9,,29652
688.38,,37556.6,,29651.4
688.28,,38749.9,,29650.6
688.18,,40791,,29649.7
688.08,,41442.4,,29648.8
687.98,,42379.4,,29647.6
687.88,,44843.7,,29646.4
687.78,,46292.3,,29645
687.68,,48008.1,,29643.4
687.58,,50977.7,,29641.7
687.48,,51987.1,,29639.7
687.38,,54872.6,,29637.6
687.28,,57469.3,,29635.2
687.18,,59928.9,,29632.6
687.08,,62632.9,,29629.8
686.98,,64978.3,,29626.8
686.88,,66819.6,,29623.5
686.78,,69338.1,,29620
686.68,,71625.1,,29616.3
686.58,,74078.4,,29612.3
686.48,,77950.3,,29608.2
686.38,,79842.2,,29603.7
686.28,,81476.5,,29599.1
686.18,,84536.3,,29594.2
686.08,,87405.4,,29589.1
685.98,,89050.6,,29583.7
685.88,,91394.3,,29578.2
685.78,,92267.1,,29572.5
685.68,,94424.6,,29566.6
685.58,,96183.9,,29560.6
685.48,,97106.1,,29554.5
685.38,,96806.6,,29548.2
685.28,,97671.4,,29542
685.18,,97003.4,,29535.7
685.08,,94902.1,,29529.5
684.98,,95252.5,,29523.3
684.88,,92823.8,,29517.3
684.78,,89442.3,,29511.5
684.68,,87232.6,,29505.9
684.58,,82608.3,,29500.6
684.48,,79539.2,,29495.7
684.38,,76132.7,,29491
684.28,,71460.6,,29486.7
684.18,,67040.2,,29482.8
684.08,,62257.5,,29479.3
683.98,,58803.8,,29476.2
683.88,,55169.6,,29473.5
683.78,,51251.6,,29471.1
683.68,,48211.5,,29469
683.58,,44714.5,,29467.2
683.48,,42981.3,,29465.7
683.38,,40700.7,,29464.5
683.28,,38253.6,,29463.4
683.18,,36792.1,,29462.6
683.08,,35469.4,,29461.9
682.98,,34214.9,,29461.3
682.88,,33288.7,,29460.8
682.78,,32695.2,,29460.4
682.68,,32298.4,,29460.1
682.58,,31185.7,,29459.9
682.48,,31297,,29459.7
682.38,,30984.1,,29459.5
682.28,,30538,,29459.4
682.18,,30397.6,,29459.3
682.08,,30479.1,,29459.2
681.98,,30153.6,,29459.1
681.88,,30143.8,,29459
681.78,,29458.7,,29459
681.68,,29955.3,,29458.9
681.58,,29844.9,,29458.9
681.48,,29639.2,,29458.9
681.38,,29934.5,,29458.8
681.28,,29297.6,,29458.8
681.18,,29553.7,,29458.8
681.08,,29447.5,,29458.8
680.98,,29497.3,,29458.8
680.88,,29581.7,,29458.8
680.78,,29430.9,,29458.8
680.68,,29522.9,,29458.8
680.58,,29082.7,,29458.8
680.48,,29318.4,,29458.8
680.38,,29777.3,,0
680.28,,29592.6,,0
680.18,,29658.2,,0
680.08,,29724.2,,0
679.98,,29162.9,,0
679.88,,28551.5,,0
679.78,,29238.2,,0
679.68,,29604.1,,0
679.58,,29011.3,,0
679.48,,29196,,0
679.38,,29176.5,,0
679.28,,29043.4,,0
679.18,,29530.1,,0
679.08,,28879.5,,0
678.98,,28818.6,,0
678.88,,29490.2,,0
678.78,,29212.5,,0
678.68,,29138.5,,0
678.58,,29088.1,,0
678.48,,29241.7,,0
678.38,,29188.5,,0
678.28,,28820.4,,0
678.18,,28949.1,,0
678.08,,29222.8,,0
